Angle,800,1000,1500,2000,2500,3000,3500,4000,4500,5000,5500,6000
0,98.87308459,98.56499285,97.7633041,96.90870554,95.98872753,94.98594701,93.87659424,92.63270973,91.22900157,89.65056913,87.89666762,85.97969199
1,98.91648582,98.60709008,97.80310212,96.94688342,96.02560894,95.0217058,93.91132653,92.666465,91.26179488,89.68240516,87.92753829,86.00958682
2,98.97256029,98.66182107,97.85543115,96.99748281,96.07479393,95.06963962,93.95809161,92.71209359,91.30628151,89.72573215,87.96967505,86.05050197
3,99.04134072,98.72921799,97.92032244,97.06053418,96.13631235,95.12977774,94.01691819,92.76962362,91.36248902,89.78057701,88.02310415,86.10246299
4,99.12286952,98.80932271,97.99781677,97.13607753,96.21020348,95.20215874,94.08784417,92.8390923,91.43045386,89.84697542,88.08786046,86.16550389
5,99.21719884,98.90218678,98.08796457,97.22416237,96.29651601,95.28683054,94.1709167,92.92054596,91.5102215,89.92497192,88.16398748,86.23966711
6,99.32439065,99.00787156,98.19082597,97.32484784,96.39530818,95.3838505,94.26619224,93.01404011,91.60184644,90.0146199,88.25153746,86.32500361
7,99.4445168,99.12644823,98.30647088,97.43820277,96.50664782,95.49328547,94.37373661,93.11963951,91.70539228,90.11598173,88.35057139,86.42157295
8,99.57765915,99.25799797,98.43497908,97.56430577,96.63061244,95.61521187,94.49362512,93.23741827,91.82093184,90.22912881,88.46115915,86.52944337
9,99.72390965,99.40261201,98.57644032,97.70324533,96.76728935,95.74971582,94.62594266,93.36745996,91.94854724,90.35414168,88.58337957,86.64869186
10,99.88337048,99.56039177,98.73095446,97.85511996,96.91677578,95.89689324,94.7707838,93.5098577,92.08833,90.49111014,88.71732055,86.77940426
11,100.0561542,99.731449,98.89863161,98.02003833,97.07917899,96.05685001,94.92825292,93.66471428,92.24038121,90.64013335,88.86307917,86.92167544
12,100.2423839,99.91590594,99.07959226,98.19811938,97.25461644,96.22970206,95.09846438,93.83214234,92.40481159,90.80131997,89.02076184,87.07560933
13,100.4421932,100.1138955,99.27396745,98.38949251,97.44321594,96.41557559,95.28154266,94.01226449,92.58174173,90.97478835,89.19048443,87.24131918
14,100.6557269,100.3255613,99.48189896,98.59429777,97.64511584,96.61460719,95.4776225,94.20521351,92.77130219,91.16066662,89.37237244,87.4189276
15,100.8831407,100.5510582,99.70353951,98.81268602,97.8604652,96.82694408,95.68684917,94.41113249,92.97363373,91.35909293,89.56656116,87.60856681
16,101.1246015,100.7905522,99.93905296,99.04481919,98.08942401,97.05274427,95.90937856,94.63017507,93.18888746,91.57021563,89.77319589,87.8103788
17,101.3802878,101.0442208,100.1886145,99.29087043,98.33216342,97.29217682,96.14537751,94.86250565,93.41722507,91.79419344,89.99243209,88.02451552
18,101.65039,101.3122531,100.4524111,99.55102444,98.58886596,97.54542203,96.39502397,95.10829958,93.65881909,92.03119571,90.22443566,88.25113911
19,101.9351104,101.5948503,100.7306413,99.82547765,98.85972581,97.81267174,96.65850725,95.36774346,93.91385307,92.28140267,90.46938313,88.49042209
20,102.2346636,101.892226,101.0235161,100.1144386,99.14494908,98.09412958,96.93602833,95.64103537,94.1825219,92.54500562,90.7274619,88.74254766
21,102.5492769,102.2046061,101.3312589,100.418128,99.44475409,98.39001126,97.22780014,95.92838516,94.46503202,92.82220728,90.99887057,89.00770991
22,102.8791905,102.5322297,101.6541057,100.7367795,99.75937168,98.70054486,97.53404781,96.23001475,94.76160179,93.11322203,91.28381915,89.28611415
23,103.224658,102.8753489,101.9923058,101.0706395,100.0890455,99.02597121,97.85500906,96.54615846,95.07246175,93.41827623,91.5825294,89.57797714
24,103.5859466,103.2342295,102.346122,101.4199677,100.4340326,99.36654417,98.19093449,96.87706332,95.39785496,93.73760854,91.89523514,89.88352744
25,103.9633374,103.6091514,102.7158307,101.7850378,100.7946033,99.72253103,98.54208798,97.22298945,95.73803738,94.07147027,92.2221826,90.20300576
26,104.3571262,104.0004086,103.1017228,102.1661375,101.1710422,100.0942129,98.90874705,97.58421043,96.0932782,94.42012578,92.56363075,90.53666525
27,104.7676235,104.4083103,103.5041039,102.5635688,101.5636481,100.4818852,99.29120329,97.9610137,96.46386026,94.78385279,92.91985171,90.88477192
28,105.1951553,104.8331807,103.9232945,102.977649,101.9727346,100.8858578,99.68976275,98.353701,96.85008048,95.16294286,93.29113115,91.24760505
29,105.6400633,105.2753599,104.3596309,103.4087107,102.3986307,101.306456,100.1047464,98.76258877,97.25225026,95.55770178,93.67776867,91.62545752
30,106.1027057,105.7352041,104.8134655,103.8571025,102.8416813,101.7440204,100.5364908,99.18800869,97.67069598,95.96845007,94.0800783,92.01863633
31,106.5834572,106.2130866,105.2851673,104.3231894,103.3022472,102.1989079,100.9853481,99.63030812,98.10575948,96.3955234,94.49838895,92.42746303
32,107.0827105,106.7093979,105.7751224,104.8073535,103.7807065,102.6714921,101.4516872,100.0898507,98.55779857,96.83927314,94.93304491,92.8522742
33,107.6008758,107.2245463,106.2837348,105.3099945,104.2774545,103.1621637,101.9358939,100.5670167,99.02718756,97.30006689,95.38440634,93.29342196
34,108.1383823,107.7589589,106.8114269,105.8315303,104.7929045,103.6713312,102.4383716,101.0622039,99.51431787,97.77828905,95.8528499,93.75127453
35,108.6956783,108.313082,107.35864,106.3723976,105.3274885,104.1994217,102.9595419,101.5758281,100.0195986,98.27434136,96.33876923,94.22621677
36,109.2732324,108.8873818,107.9258354,106.9330527,105.8816579,104.7468813,103.4998454,102.1083235,100.5434572,98.7886436,96.84257567,94.7186508
37,109.8715337,109.4823452,108.5134947,107.5139721,106.4558841,105.314176,104.0597422,102.6601439,101.0863401,99.3216342,97.36469879,95.22899664
38,110.491093,110.0984805,109.1221206,108.1156535,107.0506592,105.9017923,104.6397126,103.2317627,101.6487135,99.87377094,97.90558717,95.75769282
39,111.1324432,110.7363182,109.752238,108.7386162,107.6664969,106.510238,105.2402581,103.8236746,102.2310639,100.4455317,98.46570906,96.30519713
40,111.7961406,111.396412,110.4043947,109.383402,108.3039335,107.1400431,105.8619021,104.4363954,102.8338991,101.0374151,99.04555312,96.87198734
41,112.4827655,112.0793395,111.0791619,110.0505765,108.9635282,107.7917606,106.5051904,105.0704635,103.457749,101.6499417,99.64562925,97.45856197
42,113.1929233,112.7857033,111.7771359,110.7407296,109.6458647,108.4659673,107.1706929,105.7264406,104.1031664,102.2836541,100.2664694,98.06544108
43,113.9272453,113.5161317,112.4989384,111.4544766,110.3515516,109.1632649,107.8590037,106.4049126,104.7707278,102.9391188,100.9086284,98.69316716
44,114.6863901,114.2712803,113.2452178,112.1924592,111.0812237,109.8842811,108.5707424,107.1064904,105.4610346,103.6169262,101.572685,99.34230602
45,115.4710442,115.0518324,114.0166503,112.9553464,111.8355431,110.6296702,109.3065552,107.8318113,106.1747139,104.3176924,102.2592428,100.0134477
46,116.2819235,115.8585008,114.813941,113.7438363,112.6152001,111.4001146,110.0671162,108.5815398,106.9124197,105.0420595,102.968931,100.7072076
47,117.1197746,116.6920285,115.6378252,114.5586562,113.4209144,112.196326,110.8531279,109.3563686,107.6748339,105.7906972,103.7024059,101.4242272
48,117.9853757,117.5531902,116.4890695,115.400565,114.2534367,113.0190464,111.6653231,110.1570203,108.4626675,106.564304,104.4603519,102.1651756
49,118.8795385,118.4427939,117.368473,116.2703536,115.1135495,113.8690493,112.5044658,110.9842482,109.2766619,107.3636079,105.2434824,102.9307505
50,119.8031089,119.3616816,118.2768692,117.1688468,116.0020687,114.7471415,113.3713525,111.8388377,110.1175903,108.1893681,106.0525413,103.7216792
51,120.7569692,120.3107317,119.2151271,118.0969046,116.9198453,115.6541641,114.2668138,112.7216079,110.9862585,109.0423764,106.8883046,104.5387201
52,121.7420392,121.2908597,120.1841526,119.0554237,117.8677663,116.590994,115.1917159,113.6334128,111.8835073,109.9234583,107.7515811,105.3826642
53,122.7592781,122.3030206,121.1848907,120.0453392,118.8467569,117.558546,116.146962,114.5751429,112.8102132,110.8334745,108.6432143,106.2543362
54,123.8096862,123.3482101,122.2183266,121.0676264,119.8577819,118.5577738,117.1334939,115.547727,113.7672901,111.7733229,109.564084,107.1545963
55,124.8943066,124.4274666,123.2854879,122.1233021,120.9018475,119.5896723,118.152294,116.5521338,114.7556915,112.7439397,110.5151077,108.0843415
56,126.0142273,125.5418734,124.3874464,123.2134273,121.9800032,120.6552788,119.2043869,117.5893736,115.7764118,113.7463017,111.4972424,109.0445075
57,127.1705833,126.6925601,125.5253202,124.3391084,123.0933438,121.7556759,120.2908415,118.6605004,116.8304882,114.7814276,112.5114865,110.0360704
58,128.3645586,127.8807054,126.7002756,125.5014999,124.2430114,122.8919926,121.4127728,119.7666136,117.919003,115.8503801,113.5588814,111.0600485
59,129.5973883,129.1075391,127.9135295,126.7018063,125.4301977,124.0654071,122.5713443,120.9088605,119.0430852,116.9542684,114.6405139,112.1175042
60,130.8703616,130.3743444,129.1663518,127.9412843,126.6561462,125.2771488,123.7677701,122.0884383,120.2039132,118.0942495,115.7575179,113.2095463
61,132.1848235,131.6824605,130.4600678,129.2212458,127.9221548,126.5285007,125.0033173,123.3065964,121.4027167,119.2715313,116.9110769,114.3373319
62,133.5421784,133.0332853,131.7960608,130.5430599,129.229578,127.8208021,126.2793084,124.564639,122.6407793,120.4873746,118.1024264,115.502069
63,134.9438919,134.4282782,133.1757751,131.9081561,130.5798303,129.1554514,127.5971244,125.8639277,123.9194411,121.7430953,119.3328562,116.7050185
64,136.3914947,135.8689627,134.6007185,133.3180269,131.9743883,130.5339084,128.958207,127.2058842,125.2401014,123.040068,120.6037128,117.9474971
65,137.886585,137.3569303,136.0724658,134.774231,133.4147942,131.9576978,130.3640619,128.5919934,126.6042216,124.3797278,121.9164029,119.23088
66,139.4308324,138.8938429,137.5926619,136.2783965,134.9026589,133.4284124,131.816262,130.023806,128.0133282,125.7635739,123.2723955,120.5566036
67,141.025981,140.4814369,139.1630253,137.8322244,136.4396653,134.9477159,133.3164504,131.5029424,129.4690158,127.1931727,124.6732254,121.9261685
68,142.6738532,142.1215268,140.7853516,139.4374921,138.0275721,136.517347,134.8663442,133.0310957,130.9729509,128.6701607,126.1204965,123.3411428
69,144.3763536,143.8160087,142.4615175,141.096057,139.6682171,138.1391229,136.4677379,134.6100354,132.5268752,130.1962487,127.6158851,124.8031654
70,146.1354732,145.5668648,144.1934847,142.8098611,141.3635217,139.814943,138.1225074,136.2416116,134.1326094,131.7732247,129.1611434,126.3139497
71,147.9532936,147.3761677,145.9833046,144.5809348,143.1154948,141.5467937,139.8326144,137.9277583,135.7920573,133.4029586,130.7581038,127.8752869
72,149.831992,149.2460848,147.8331222,146.4114014,144.9262375,143.3367521,141.6001101,139.6704984,137.5072098,135.0874058,132.4086823,129.4890508
73,151.7738455,151.1788833,149.7451814,148.3034822,146.7979475,145.1869912,143.4271405,141.4719481,139.2801496,136.828612,134.1148837,131.1572012
74,153.7812366,153.1769353,151.7218303,150.2595011,148.7329242,147.0997844,145.3159509,143.3343214,141.113056,138.6287173,135.8788051,132.8817886
75,155.8566588,155.2427234,153.7655257,152.2818904,150.7335744,149.0775112,147.2688912,145.2599354,143.0082097,140.4899617,137.7026417,134.6649592
76,158.0027219,157.378846,155.8788397,154.373196,152.8024171,151.1226622,149.2884211,147.2512158,144.9679979,142.4146901,139.5886912,136.5089597
77,160.2221587,159.5880241,158.0644653,156.5360838,154.9420901,153.2378455,151.3771163,149.3107023,146.9949206,144.4053577,141.5393595,138.4161423
78,162.5178311,161.873107,160.325223,158.7733457,157.155356,155.4257923,153.5376742,151.4410551,149.0915958,146.4645358,143.5571665,140.3889708
79,164.892737,164.2370796,162.6640673,161.0879064,159.4451087,157.6893642,155.7729207,153.6450606,151.2607663,148.5949184,145.6447519,142.4300261
80,167.3500176,166.6830697,165.084094,163.4828306,161.8143808,160.0315592,158.0858169,155.9256389,153.505306,150.799328,147.8048819,144.5420127
81,169.8929653,169.2143552,167.588548,165.9613304,164.2663507,162.4555201,160.4794664,158.2858504,155.8282274,153.0807233,150.0404557,146.7277654
82,172.5250314,171.8343729,170.1808311,168.5267733,166.8043505,164.9645415,162.9571232,160.728904,158.2326886,155.4422063,152.3545129,148.990256
83,175.2498353,174.5467263,172.8645104,171.1826909,169.4318748,167.5620784,165.5221995,163.2581644,160.7220015,157.8870297,154.7502412,151.3326013
84,178.0711732,177.3551955,175.6433278,173.9327873,172.1525889,170.2517551,168.1782745,165.8771613,163.2996403,160.4186057,157.2309844,153.7580705
85,180.9930281,180.2637463,178.5212093,176.7809492,174.9703388,173.0373743,170.929104,168.5895983,165.9692501,163.0405147,159.8002509,156.270094
86,184.0195799,183.276541,181.5022751,179.7312556,177.8891608,175.9229268,173.7786294,171.3993621,168.7346568,165.756514,162.4617228,158.8722718
87,187.1552164,186.3979486,184.5908505,182.7879885,180.9132923,178.9126024,176.7309887,174.3105335,171.5998767,168.5705486,165.2192658,161.5683837
88,190.4045449,189.632557,187.7914774,185.9556443,184.0471827,182.0108007,179.7905271,177.3273971,174.5691273,171.4867606,168.0769393,164.3623986
89,193.7724046,192.9851847,191.1089261,189.238946,187.2955058,185.2221428,182.9618086,180.454454,177.6468386,174.5095013,171.0390071,167.2584852
90,197.2638791,196.4608941,194.5482087,192.6428555,190.6631717,188.5514839,186.2496285,183.6964328,180.8376652,177.6433422,174.1099491,170.2610239
91,200.884311,200.0650052,198.1145919,196.1725875,194.1553408,192.0039265,189.6590262,187.0583032,184.1464986,180.8930877,177.2944734,173.374618
92,204.6393157,203.8031101,201.8136125,199.8336235,197.7774377,195.5848345,193.1952994,190.5452896,187.578481,184.2637884,180.5975294,176.6041066
93,208.5347975,207.6810882,205.6510917,203.6317273,201.5351663,199.2998479,196.8640185,194.1628853,191.1390195,187.760755,184.0243215,179.9545782
94,212.5769657,211.7051233,209.6331522,207.5729607,205.4345255,203.1548986,200.6710425,197.9168681,194.8338011,191.3895734,187.5803233,183.4313847
95,216.7723524,215.8817203,213.7662348,211.663701,209.4818266,207.1562274,204.622535,201.8133164,198.6688088,195.15612,191.2712938,187.0401568
96,221.1278306,220.2177238,218.057117,215.9106589,213.6837108,211.3104011,208.7249823,205.8586269,202.6503389,199.0665789,195.103293,190.7868198
97,225.6506338,224.7203379,222.5129322,220.3208978,218.0471684,215.6243323,212.9852116,210.0595323,206.7850185,203.1274593,199.0826999,194.6776106
98,230.3483772,229.3971464,227.1411905,224.9018537,222.5795587,220.1052982,217.4104109,214.4231214,211.079825,207.3456146,203.2162304,198.7190958
99,235.2290792,234.2561353,231.9497999,229.6613573,227.2886318,224.7609627,222.0081497,218.956859,215.5421063,211.7282618,207.5109571,202.9181904
100,240.3011847,239.3057154,236.9470898,234.6076566,232.1825507,229.5993978,226.786401,223.6686083,220.1796022,216.2830031,211.97433,207.2821789
101,245.5735902,244.5547473,242.1418352,239.749441,237.2699155,234.6291082,231.7535651,228.5666536,225.0004672,221.0178479,216.6141981,211.8187355
102,251.0556692,250.0125671,247.5432825,245.0958668,242.5597886,239.8590558,236.9184938,233.6597247,230.0132944,225.9412365,221.4388327,216.5359477
103,256.7573002,255.689014,253.1611765,250.6565843,248.0617215,245.298686,242.2905171,238.957023,235.2271409,231.0620651,226.4569521,221.4423397
104,262.6888955,261.5944592,259.0057897,256.4417665,253.785783,250.9579564,247.8794705,244.4682484,240.651555,236.3897123,231.677747,226.546898
105,268.8614323,267.7398369,265.0879522,262.462139,259.7425895,256.8473657,253.6957244,250.2036287,246.2966042,241.9340668,237.1109084,231.8590979
106,275.2864847,274.136676,271.419084,268.7290119,265.9433357,262.9779853,259.7502147,256.1739495,252.1729054,247.7055568,242.7666559,237.3889321
107,281.9762582,280.7971348,278.0112291,275.2543135,272.3998288,269.361492,266.0544758,262.3905864,258.2916564,253.7151814,248.6557686,243.1469399
108,288.9436253,287.7340364,284.8770905,282.0506255,279.1245228,276.0102027,272.6206744,268.865539,264.6646692,259.9745431,254.7896169,249.1442391
109,296.2021635,294.9609067,292.0300684,289.1312201,286.1305557,282.937111,279.4616457,275.6114664,271.3044053,266.4958819,261.1801964,255.3925585
110,303.766195,302.4920138,299.4842988,296.5100993,293.4317879,290.1559252,286.5909311,282.6417243,278.2240117,273.292112,267.8401631,261.9042732
111,311.6508282,310.3424097,307.2546952,304.2020353,301.0428432,297.6811086,294.0228184,289.9704046,285.4373605,280.3768593,274.7828706,268.69244
112,319.8720011,318.5279734,315.3569916,312.2226138,308.9791505,305.5279218,301.7723826,297.6123759,292.9590884,287.7645013,282.0224093,275.7708363
113,328.4465269,327.0654564,323.8077875,320.5882787,317.256989,313.7124659,309.8555297,305.5833266,300.8046393,295.4702083,289.5736466,283.1539995
114,337.3921408,335.9725298,332.6245949,329.3163781,325.8935337,322.2517288,318.2890421,313.8998097,308.9903084,303.5099869,297.4522696,290.8572684
115,346.7275494,345.2678333,341.8258867,338.4252132,334.9069035,331.1636327,327.0906249,322.5792887,317.5332873,311.9007245,305.6748287,298.8968262
116,356.4724813,354.9710256,351.4311474,347.9340883,344.3162111,340.4670826,336.2789554,331.6401859,326.4517119,320.6602363,314.2587837,307.2897451
117,366.647739,365.1028368,361.4609251,357.8633621,354.1416138,350.1820179,345.8737323,341.1019319,335.7647108,329.8073125,323.2225504,316.0540324
118,377.2752528,375.6851219,371.9368842,368.2345009,364.4043665,360.3294639,355.8957281,350.9850163,345.4924555,339.3617685,332.585549,325.2086777
119,388.3781351,386.7409151,382.8818604,379.0701324,375.1268748,370.9315849,366.3668409,361.3110398,355.6562114,349.3444941,342.3682532,334.7737009
120,399.9807355,398.294485,394.3199155,390.3941007,386.3327497,382.0117386,377.3101483,372.1027667,366.2783902,359.7775055,352.5922409,344.7702016
121,412.1086966,410.3713905,406.2763926,402.2315216,398.0468624,393.5945297,388.749961,383.3841782,377.3826016,370.6839961,363.2802439,355.2204079
122,424.7890089,422.9985357,418.7779716,414.6088368,410.2953987,405.7058646,400.7118759,395.1805249,388.9937057,382.0883882,374.4561985,366.1477263
123,438.0500647,436.204224,431.8527235,427.5538687,423.1059127,418.3730044,413.2228296,407.5183795,401.1378646,394.016383,386.1452952,377.5767895
124,451.9217109,450.0182109,445.5301622,441.0958724,436.5073789,431.6246166,426.3111492,420.425687,413.8425921,406.4950105,398.3740269,389.5335041
125,466.4352979,464.4717531,459.8412952,455.2655856,450.530242,445.4908243,440.0066008,433.931813,427.1368011,419.5526756,411.1702345,402.0450954
126,481.6237249,479.5976547,474.8186689,470.095274,465.2064621,460.0032517,454.3404351,448.0675881,441.050848,433.2192015,424.5631495,415.1401489
127,497.5214801,495.4303068,490.4964091,485.6187725,480.5695555,475.1950643,469.3454271,462.8653481,455.6165713,447.5258687,438.5834323,428.8486474
128,514.1646726,512.0057202,506.9102548,501.8715185,496.6546284,491.1010026,485.0559094,478.3589664,470.8673251,462.5054467,453.2632033,443.2020023
129,531.5910558,529.3615496,524.097582,518.8905768,513.4984018,507.7574071,501.5077976,494.5838795,486.8380028,478.1922187,468.6360671,458.2330767
130,549.8400382,547.537105,542.097417,536.7146527,531.1392251,525.2022319,518.7386037,511.5771001,503.5650516,494.6219951,484.7371263,473.9761992
131,568.9526808,566.5733492,560.9504349,555.3840915,549.617076,543.4750455,536.7874369,529.3772189,521.0864733,511.8321147,501.6029821,490.4671648
132,588.9716749,586.5128773,580.6989402,574.9408607,568.9735432,562.6170134,555.6949875,548.0243881,539.4418091,529.86143,519.2717208,507.7432214
133,609.9412996,607.3998749,601.386827,595.4285106,589.2517887,582.6708616,575.5034908,567.5602863,558.6721047,548.7502733,537.7828799,525.8430371
134,631.9073519,629.2800492,623.0595128,616.8921098,610.4964839,603.6808144,596.2566655,588.0280586,578.8198519,568.5403992,557.1773927,544.8066459
135,654.9170464,652.2005305,645.7638415,639.3781508,632.7537171,625.6925025,617.9996245,609.4722283,599.9289022,589.2748997,577.497505,564.6753668
